      Energy            Data      Uncertainty     Th_initial      Th_final
  9.99999975E-05   56.056122       15.053988       41.002136       0.0000000    
  1.14306000E-04   53.404568       15.053988       38.350582       0.0000000    
  1.28611005E-04   51.208908       15.053988       36.154919       0.0000000    
  1.57221002E-04   47.754246       15.053988       32.700256       0.0000000    
  1.85832003E-04   45.131794       15.053987       30.077808       0.0000000    
  2.14442000E-04   43.053566       15.053987       27.999578       0.0000000    
  2.43053000E-04   41.353996       15.053987       26.300011       0.0000000    
  2.71663012E-04   39.930595       15.053987       24.876608       0.0000000    
  3.28883005E-04   37.663212       15.053987       22.609224       0.0000000    
  3.86103988E-04   35.920708       15.053986       20.866722       0.0000000    
  4.43324010E-04   34.527561       15.053986       19.473576       0.0000000    
  5.57765015E-04   32.415222       15.053986       17.361237       0.0000000    
  6.72206981E-04   30.868458       15.053985       15.814474       0.0000000    
  7.86648015E-04   29.672928       15.053985       14.618944       0.0000000    
  9.01088992E-04   28.713091       15.053984       13.659108       0.0000000    
  1.01552997E-03   27.920464       15.053983       12.866480       0.0000000    
  1.24441006E-03   26.677145       15.053982       11.623162       0.0000000    
  1.47329003E-03   25.736210       15.053981       10.682228       0.0000000    
  1.70217000E-03   24.992104       15.053980       9.9381237       0.0000000    
  1.93104998E-03   24.384567       15.053979       9.3305883       0.0000000    
  2.38882005E-03   23.443048       15.053977       8.3890715       0.0000000    
  2.84658000E-03   22.738974       15.053975       7.6849980       0.0000000    
  3.30433995E-03   22.186821       15.053973       7.1328473       0.0000000    
  3.76209989E-03   21.738794       15.053971       6.6848235       0.0000000    
  4.67763003E-03   21.049004       15.053967       5.9950366       0.0000000    
  5.59314992E-03   20.536432       15.053963       5.4824691       0.0000000    
  6.50868006E-03   20.136229       15.053959       5.0822687       0.0000000    
  7.42419995E-03   19.812551       15.053955       4.7585969       0.0000000    
  9.25524998E-03   19.315903       15.053946       4.2619562       0.0000000    
  1.10863000E-02   18.948057       15.053939       3.8941178       0.0000000    
  1.29173500E-02   18.661503       15.053930       3.6075721       0.0000000    
  1.47483898E-02   18.430126       15.053923       3.3762045       0.0000000    
  1.84104908E-02   18.075716       15.053906       3.0218091       0.0000000    
  2.20725909E-02   17.813652       15.053890       2.7597623       0.0000000    
  2.57346891E-02   17.609737       15.053874       2.5558627       0.0000000    
  2.93967798E-02   17.445223       15.053858       2.3913643       0.0000000    
  3.67209800E-02   17.193441       15.053826       2.1396158       0.0000000    
  4.40451689E-02   17.007418       15.053794       1.9536244       0.0000000    
  5.13693690E-02   16.862749       15.053761       1.8089867       0.0000000    
  5.86935617E-02   16.746077       15.053729       1.6923475       0.0000000    
  7.33419508E-02   16.567585       15.053665       1.5139207       0.0000000    
  8.79903436E-02   16.435755       15.053600       1.3821540       0.0000000    
  0.10263873       16.333250       15.053536       1.2797139       0.0000000    
  0.11728711       16.250593       15.053472       1.1971208       0.0000000    
  0.14658388       16.124146       15.053344       1.0708020       0.0000000    
  0.17588067       16.030750       15.053215      0.97753513       0.0000000    
  0.20517746       15.958122       15.053086      0.90503585       0.0000000    
  0.23447423       15.899546       15.052958      0.84658819       0.0000000    
  0.29306778       15.809907       15.052701      0.75720602       0.0000000    
  0.35166132       15.743660       15.052444      0.69121659       0.0000000    
  0.41025490       15.692110       15.052187      0.63992327       0.0000000    
  0.46884844       15.650502       15.051929      0.59857267       0.0000000    
  0.58603555       15.586754       15.051415      0.53533769       0.0000000    
  0.70322263       15.539555       15.050902      0.48865247       0.0000000    
  0.82040977       15.502752       15.050388      0.45236379       0.0000000    
  0.93759686       15.472983       15.049874      0.42310861       0.0000000    
   1.1719711       15.427217       15.048847      0.37836850       0.0000000    
   1.4063454       15.393156       15.047821      0.34533525       0.0000000    
   1.6407195       15.366451       15.046795      0.31965628       0.0000000    
   1.8750937       15.344721       15.045769      0.29895270       0.0000000    
   2.3438423       15.311004       15.043716      0.26728648       0.0000000    
   2.8125906       15.285568       15.041666      0.24390191       0.0000000    
   3.2813392       15.265337       15.039617      0.22572015       0.0000000    
   3.7500875       15.248627       15.037568      0.21105844       0.0000000    
   4.6875844       15.222101       15.033474      0.18862718       0.0000000    
   5.6250811       15.201440       15.029384      0.17205620       0.0000000    
   6.5625782       15.184464       15.025296      0.15916727       0.0000000    
   7.5000749       15.169984       15.021214      0.14876987       0.0000000    
   9.3750687       15.145913       15.013059      0.13285425       0.0000000    
   11.250063       15.126007       15.004919      0.12108821       0.0000000    
   13.125056       15.108725       14.996794      0.11193015       0.0000000    
   15.000050       15.093221       14.988684      0.10453735       0.0000000    
   18.750038       15.065717       14.972507      9.32099000E-02   0.0000000    
   22.500025       15.041213       14.956388      8.48249495E-02   0.0000000    
   26.250013       15.018618       14.940327      7.82904625E-02   0.0000000    
   30.000000       14.997333       14.924323      7.30092525E-02   0.0000000    
