      Energy            Data      Uncertainty     Th_initial      Th_final
   890.43274       1.8727027      2.04794612E-02   3.1727881       4.2850914    
   891.12537       1.5005419      2.01782919E-02   3.1121862       3.5331481    
   891.82007       1.2047675      1.99975912E-02   2.8639650       2.9795704    
   892.51459      0.91854554      1.94554869E-02   2.1951783       2.5049245    
   893.20868      0.67924541      1.96964219E-02   1.0583882       1.9792829    
   893.90417      0.83782089      1.96964219E-02  0.26101872       1.1196053    
   894.60303       1.3145453      1.99373569E-02  0.51764643      0.37340796    
   895.00873       1.8464944      4.95121069E-02  0.89975739      0.92636704    
   895.12500       2.1159086      5.01746796E-02   1.0382285       1.2547303    
   895.24133       2.3740497      5.04156128E-02   1.1842746       1.6181241    
   895.35767       2.5860124      5.10781817E-02   1.3428346       1.9992868    
   895.47406       2.9047241      5.18612228E-02   1.5200956       2.3844802    
   895.59045       3.3301854      5.27647287E-02   1.7242672       2.7685385    
   895.70685       3.8087220      5.35477661E-02   1.9684221       3.1601796    
   895.82324       4.4673986      5.56559451E-02   2.2686694       3.5755010    
   895.93976       5.1981630      5.72822541E-02   2.6357820       4.0253863    
   896.05621       5.8938451      5.95109016E-02   3.0572250       4.5001822    
   896.17273       6.3513784      6.10769801E-02   3.4746175       4.9572735    
   896.28918       6.2703218      6.13781475E-02   3.7803249       5.3230195    
   896.40576       5.8239770      5.96916042E-02   3.8664241       5.5206504    
   896.52234       5.1887422      5.74027225E-02   3.7093432       5.5147581    
   896.63892       4.5866261      5.55354767E-02   3.3962731       5.3347411    
   896.75555       3.9909620      5.42705692E-02   3.0559409       5.0529017    
   896.87219       3.6560843      5.34875318E-02   2.7792652       4.7422476    
   896.98883       3.5470903      5.31863645E-02   2.5979743       4.4509573    
   897.10553       3.6061213      5.24033234E-02   2.5040596       4.2001257    
   897.22223       3.6802061      5.25840260E-02   2.4756434       3.9925761    
   897.33899       3.7310534      5.27044944E-02   2.4933200       3.8226697    
   897.45569       3.8964884      5.31261303E-02   2.5461392       3.6825848    
   897.57251       4.0190663      5.38489334E-02   2.6324940       3.5659800    
   897.68927       4.4801526      5.51138408E-02   2.7597082       3.4715452    
   897.80609       4.9129977      5.65594509E-02   2.9434495       3.4084733    
   897.92291       5.6636853      5.92097342E-02   3.2041831       3.4031594    
   898.03979       6.3822293      6.14383817E-02   3.5568221       3.4966726    
   898.15668       6.5971680      6.19804859E-02   3.9913700       3.7189522    
   898.27356       6.1952462      6.07155748E-02   4.4506435       4.0419769    
   898.39050       5.3954315      5.83664626E-02   4.8280582       4.3525910    
   898.50751       4.5625033      5.59571125E-02   5.0120797       4.5073428    
   898.62445       3.8852293      5.37886992E-02   4.9612784       4.4522033    
   898.74146       3.2840376      5.26442602E-02   4.7334213       4.2618670    
   898.85846       2.8535650      5.18612228E-02   4.4345169       4.0502629    
   898.97552       2.7350280      5.13793528E-02   4.1510172       3.8849306    
   899.09259       2.5353627      5.08372486E-02   3.9232605       3.7788079    
   899.26794       2.3540046      3.56583558E-02   3.6896787       3.7020538    
   899.50244       2.1818674      3.54174189E-02   3.5139380       3.6900337    
   899.73682       1.9855243      3.54776531E-02   3.4232914       3.7487016    
   899.97119       2.0961368      3.57185863E-02   3.3726025       3.8776236    
   900.20575       2.0814846      3.60197574E-02   3.3451309       4.0974450    
   900.44073       2.2890379      3.60197574E-02   3.3430879       4.4482751    
   900.61664       2.5935109      5.14395870E-02   3.3738532       4.8190327    
   900.73401       3.1269457      5.23430929E-02   3.4265335       5.1329017    
   900.85138       3.6339784      5.37886992E-02   3.5274382       5.5085983    
   900.96881       4.5188642      5.60173467E-02   3.7087519       5.9438949    
   901.08630       5.5372519      5.89687973E-02   4.0122981       6.4244628    
   901.20380       6.4134459      6.16793148E-02   4.4726849       6.9210300    
   901.32129       7.2089081      6.48716986E-02   5.0735335       7.3856168    
   901.43878       7.8859782      6.74617514E-02   5.6822219       7.7529550    
   901.55634       8.2719126      6.92687631E-02   6.0338726       7.9541636    
   901.67395       8.6379356      7.10155368E-02   5.8957047       7.9429274    
   901.79150       8.4365120      7.01722652E-02   5.3093233       7.7178173    
   901.90918       7.9922462      6.75822198E-02   4.5433197       7.3229241    
   902.02679       7.1181154      6.41488954E-02   3.8366494       6.8264446    
   902.14447       6.3077836      6.08962774E-02   3.2871311       6.2949376    
   902.26215       5.2999563      5.77038899E-02   2.8916476       5.7778964    
   902.37988       4.4917674      5.55957109E-02   2.6097078       5.3042679    
   902.49762       3.8294950      5.42705692E-02   2.4005842       4.8869338    
   902.61536       3.3796086      5.33068292E-02   2.2348573       4.5276337    
   902.73315       2.8731246      5.25237918E-02   2.0947065       4.2224083    
   902.85095       2.5564699      5.16805202E-02   1.9700948       3.9644675    
   902.96875       2.2539418      5.05963154E-02   1.8555633       3.7465155    
   903.08661       2.0303323      5.02349101E-02   1.7480316       3.5616262    
   903.20453       1.9258438      4.97530401E-02   1.6458000       3.4038787    
   903.32239       1.7304796      4.95723411E-02   1.5478921       3.2682788    
   903.44031       1.7421783      4.99337427E-02   1.4537445       3.1507123    
   903.55829       1.7534211      5.01144454E-02   1.3630754       3.0478790    
   903.67621       1.8524897      5.07167801E-02   1.2757882       2.9571548    
   903.79425       2.1806934      5.08372486E-02   1.1918097       2.8763659    
   903.91223       2.2868228      5.07167801E-02   1.1111592       2.8038058    
   904.03027       2.2431364      5.05963154E-02   1.0337877       2.7380111    
   904.14832       2.0607650      5.04156128E-02  0.95984393       2.6779287    
   904.26642       1.7383480      4.96928096E-02  0.88964683       2.6228447    
   904.38452       1.4910758      4.92711738E-02  0.82289934       2.5717599    
   904.50262       1.3526026      4.85483669E-02  0.75854439       2.5232558    
   904.91571       1.0198967      1.96361877E-02  0.57288623       2.3827250    
   905.62482      0.97380018      1.96361877E-02  0.33861470       2.1815114    
   906.33752      0.93048567      1.95759553E-02  0.19785137       1.9934545    
   907.04840      0.87951696      1.94554869E-02  0.15355353       1.8428601    
   907.76056       1.0559750      1.96964219E-02  0.17369486       1.7375110    
   908.47083       1.1940576      1.98168904E-02  0.26925799       1.7622913    
   909.18707       1.6093798      2.04192270E-02  0.53995407       2.1034627    
   909.60419       2.1361341      5.10179512E-02   1.0774455       2.5088146    
   909.72327       2.5741966      5.16202860E-02   1.3717722       2.6533394    
   909.84247       3.1251202      5.22226244E-02   1.7228380       2.7941785    
   909.96167       3.5122173      5.25840260E-02   2.0860696       2.9238346    
   910.08087       3.6335673      5.30056618E-02   2.3713715       3.0309854    
   910.20013       3.4511955      5.22828586E-02   2.4789319       3.1024501    
   910.31940       3.0825212      5.15600517E-02   2.3671792       3.1268599    
   910.43872       2.6645310      5.05360812E-02   2.0857291       3.0971203    
   910.55804       2.3026950      4.96928096E-02   1.7362585       3.0121417    
   910.67737       1.9197901      4.92109396E-02   1.4084250       2.8777957    
   910.79675       1.9308453      4.86688353E-02   1.1469731       2.7044787    
   910.97589       1.8503352      3.42729799E-02  0.88515997       2.3949142    
   911.21423       1.9377673      3.46946158E-02  0.70438659       1.9524390    
   911.45392       1.9483855      3.51162516E-02  0.62599593       1.5542421    
   911.69238       2.0175779      3.49957831E-02  0.59489602       1.2359965    
   911.93201       2.1720903      3.51764858E-02  0.58635563       1.0015928    
   912.17047       2.4928834      3.56583558E-02  0.59025085      0.84921026    
   912.41003       2.6379442      3.63209248E-02  0.60164070      0.76626444    
   912.64996       2.7362828      3.62004563E-02  0.61802375      0.74234623    
   912.88940       2.5230310      3.58992890E-02  0.63811487      0.76760560    
   913.12885       2.4071167      3.55981216E-02  0.66165322      0.83475804    
   913.36908       2.3643870      3.54174189E-02  0.68940210      0.94204271    
   913.60883       2.4627666      3.52367200E-02  0.72346878       1.0959607    
   913.84802       2.4261351      3.51764858E-02  0.77173465       1.3268588    
   914.08820       2.6298940      3.55378874E-02  0.86503923       1.7106884    
   914.26855       2.8425341      5.10179512E-02   1.0241704       2.1584647    
   914.38861       3.1403463      5.18009886E-02   1.2201113       2.5558467    
   914.50873       3.4899538      5.26442602E-02   1.5092189       3.0282505    
   914.62878       3.7224112      5.33068292E-02   1.8566920       3.5373733    
   914.74896       3.7186196      5.34272976E-02   2.1537211       4.0149646    
   914.86914       3.7841003      5.33670634E-02   2.2660966       4.3842807    
   914.98932       3.5617385      5.27647287E-02   2.1500430       4.5964923    
   915.10956       3.3831546      5.24635576E-02   1.8959901       4.6548271    
   915.22974       3.3891113      5.21623902E-02   1.6392192       4.6085062    
   915.35004       3.2824097      5.22226244E-02   1.4636798       4.5238113    
   915.47034       3.2990515      5.25237918E-02   1.3893479       4.4583149    
   915.59064       3.2246935      5.25840260E-02   1.4064604       4.4525447    
   915.71094       3.3797297      5.28249592E-02   1.5074276       4.5338702    
   915.83130       3.7805150      5.38489334E-02   1.7010441       4.7230182    
   915.95166       4.0275970      5.49933761E-02   2.0128920       5.0369015    
   916.07208       4.5692019      5.64389825E-02   2.4749811       5.4844213    
   916.19250       5.4366646      5.83062284E-02   3.1009769       6.0535445    
   916.31299       6.1012115      6.00530058E-02   3.8444195       6.6921625    
   916.43341       6.5141573      6.08360432E-02   4.5532207       7.2915058    
   916.55396       6.3873725      6.06553443E-02   4.9839005       7.6983733    
   916.67450       5.9041262      5.86676300E-02   4.9512882       7.7813835    
   916.79504       5.1179876      5.61378151E-02   4.5031624       7.5201187    
   916.91559       4.3948956      5.46319708E-02   3.8672264       7.0190883    
   917.03619       4.1061950      5.37284650E-02   3.2509627       6.4240007    
   917.21698       3.8397138      3.75255980E-02   2.5491908       5.5726042    
   917.45850       3.6254001      3.73448990E-02   2.0146408       4.7044377    
   917.69971       3.5332007      3.74653675E-02   1.7715300       4.1566105    
   917.94135       3.5409074      3.74051332E-02   1.6736621       3.8116932    
   918.18280       3.4780903      3.72846648E-02   1.6668240       3.5950158    
   918.42493       3.5170264      3.71641964E-02   1.7642969       3.4988000    
   918.66669       3.6278186      3.72244306E-02   2.0547693       3.6309180    
   918.84796       4.0777206      5.37284650E-02   2.4792743       3.9985881    
   918.96893       4.5995073      5.49331419E-02   2.8572786       4.3816915    
   919.08990       4.9389000      5.62582836E-02   3.2445662       4.8072629    
   919.21094       5.1312618      5.64389825E-02   3.5321953       5.1580577    
   919.33197       4.9688830      5.60775809E-02   3.6202626       5.3202648    
   919.45306       4.5772190      5.52945435E-02   3.4931061       5.2610130    
   919.57416       3.9503632      5.42705692E-02   3.2316914       5.0445499    
   919.69525       3.6373198      5.36682345E-02   2.9478354       4.7694292    
   919.81641       3.1355922      5.31261303E-02   2.7211781       4.5065031    
   919.93756       2.8335283      5.30056618E-02   2.5847723       4.2841005    
   920.05878       2.5332892      5.30658960E-02   2.5360749       4.1011763    
   920.17999       2.1930611      5.30658960E-02   2.5399368       3.9399064    
   920.30121       1.8753295      5.28249592E-02   2.5217023       3.7692671    
   920.42249       1.6231824      5.25840260E-02   2.3866429       3.5467544    
   920.54376       1.3911693      5.21623902E-02   2.0942183       3.2367313    
   920.66510       1.3113478      5.15600517E-02   1.7182533       2.8522768    
   920.78638       1.1743040      5.09577170E-02   1.3957266       2.4828629    
   920.90778       1.2026417      5.03553785E-02   1.2195611       2.2557733    
   921.02911       1.1616725      5.01746796E-02   1.1939329       2.2523522    
   921.15057       1.1762534      4.97530401E-02   1.2654575       2.4528162    
   921.27197       1.1384326      4.99939770E-02   1.3763756       2.7537935    
   921.39343       1.2841856      5.00542112E-02   1.4940767       3.0413120    
   921.51489       1.4921958      5.01746796E-02   1.6106629       3.2571585    
   921.63641       1.7078595      5.04156128E-02   1.7307036       3.4052851    
   921.75793       1.7753692      5.08372486E-02   1.8627807       3.5171862    
   921.87952       2.0827897      5.13191186E-02   2.0171790       3.6240308    
   922.00104       2.3970504      5.18612228E-02   2.2063904       3.7504528    
   922.12268       2.8217096      5.24635576E-02   2.4467933       3.9195111    
   922.24432       3.2395964      5.30658960E-02   2.7593870       4.1579151    
   922.36597       3.8706272      5.44512719E-02   3.1687224       4.4980178    
   922.48761       4.4600306      5.60775809E-02   3.6967759       4.9734836    
   922.60931       5.1358113      5.80652915E-02   4.3469610       5.6020679    
   922.73102       5.8514204      6.03541732E-02   5.0781116       6.3520260    
   922.85278       6.4238939      6.21611848E-02   5.7805648       7.1058660    
   922.97455       6.8320994      6.36670291E-02   6.2961693       7.6761794    
   923.09631       6.9821639      6.46307692E-02   6.5197554       7.9304438    
   923.21814       7.0135384      6.43898323E-02   6.5035181       7.9272628    
   923.33997       6.9755430      6.38477281E-02   6.4198828       7.8681951    
   923.46185       7.2125816      6.43296018E-02   6.4149551       7.9165277    
   923.58374       7.3722191      6.51728734E-02   6.5070572       8.0853710    
   923.70563       7.5983639      6.60161451E-02   6.5831985       8.2418613    
   923.82758       7.4187536      6.55342713E-02   6.4823937       8.2029161    
   923.94952       7.1043177      6.44500628E-02   6.1229296       7.8778038    
   924.07153       6.3997145      6.17395490E-02   5.5608582       7.3297863    
   924.19354       5.6987209      5.96916042E-02   4.9260550       6.6991811    
   924.31555       5.0698457      5.80050610E-02   4.3288727       6.1010385    
   924.43762       4.6122046      5.64992167E-02   3.8250759       5.5911331    
   924.55969       4.4386263      5.55354767E-02   3.4271286       5.1807165    
   924.68182       4.2070251      5.49331419E-02   3.1246247       4.8586307    
   924.80389       4.0491257      5.44512719E-02   2.9004669       4.6075993    
   924.92609       3.9339163      5.41501008E-02   2.7384841       4.4113626    
   925.04828       3.9040368      5.40296361E-02   2.6264668       4.2572765    
   925.17047       3.8214421      5.41501008E-02   2.5565686       4.1363730    
   925.29272       3.8282776      5.38489334E-02   2.5252116       4.0429864    
   925.41498       3.7054603      5.39694019E-02   2.5331988       3.9746962    
   925.53723       3.6566339      5.37284650E-02   2.5862393       3.9327404    
   925.65955       3.7433596      5.37886992E-02   2.6960900       3.9237137    
   925.78186       3.8396046      5.36080003E-02   2.8817034       3.9628115    
   925.90417       3.9086518      5.40898703E-02   3.1690497       4.0781088    
   926.02655       4.1318216      5.48126735E-02   3.5862648       4.3121986    
   926.14899       4.6546874      5.59571125E-02   4.1488547       4.7119913    
   926.27136       5.2357435      5.74629568E-02   4.8323312       5.2952137    
   926.39380       5.8203402      5.89085668E-02   5.5356679       5.9886928    
   926.51630       6.2453122      6.08962774E-02   6.0693564       6.5774202    
   926.63879       6.4708924      6.10167459E-02   6.2300167       6.7791915    
   926.76129       6.0953469      6.02337085E-02   5.9552045       6.4895139    
   926.88385       5.3194909      5.83062284E-02   5.3786345       5.8910055    
   927.00641       4.5514612      5.59571125E-02   4.7065272       5.2486773    
   927.12897       3.9278655      5.43308035E-02   4.0873723       4.7174644    
   927.25165       3.6051667      5.33068292E-02   3.5832002       4.3319740    
   927.37427       3.3611927      5.27647287E-02   3.1993229       4.0681944    
   927.49695       3.2152803      5.24635576E-02   2.9157097       3.8887656    
   927.61963       3.3485940      5.27647287E-02   2.7077050       3.7631884    
   927.74231       3.3965549      5.28851934E-02   2.5544116       3.6714938    
   928.05090       3.5953243      2.64425967E-02   2.3143823       3.5198562    
   928.54047       3.6642826      2.66232975E-02   2.1399765       3.3860779    
   929.03265       3.9051378      2.70449352E-02   2.0565455       3.2908132    
   929.52533       3.7787757      2.66232975E-02   2.0241151       3.2256775    
   930.01715       3.7241614      2.63823643E-02   2.0141325       3.1713412    
   930.50818       3.6882932      2.64425967E-02   2.0198076       3.1245894    
   931.00409       3.6560326      2.64425967E-02   2.0400851       3.0816977    
   931.49524       3.5963662      2.64425967E-02   2.0781822       3.0439091    
   931.99115       3.5731416      2.65028309E-02   2.1693633       3.0090790    
   932.48535       3.6752272      2.65028309E-02   2.4297740       3.0373385    
   932.79456       3.9008272      5.39091676E-02   2.9487100       3.3217390    
   932.91833       4.3361630      5.46319708E-02   3.2814429       3.5902250    
   933.04211       4.7261558      5.55354767E-02   3.6431596       3.9181812    
   933.16589       5.1550064      5.64992167E-02   3.9376073       4.1927447    
   933.28967       5.1194081      5.71617894E-02   4.0528822       4.2828979    
   933.41351       5.1171021      5.68606183E-02   3.9409914       4.1512542    
   933.53741       4.7637501      5.54150119E-02   3.6582282       3.8855848    
   933.66132       4.2581663      5.44512719E-02   3.3157229       3.6079543    
   933.78522       3.8175547      5.32465950E-02   3.0053368       3.3899169    
   933.90912       3.6067569      5.27647287E-02   2.7690692       3.2439044    
   934.03308       3.6818864      5.25237918E-02   2.6090207       3.1529920    
   934.34186       3.5616119      2.64425967E-02   2.4384651       3.0514045    
   934.84027       3.5091231      2.64425967E-02   2.4151957       2.9762824    
   935.33612       3.4573486      2.63823643E-02   2.5444345       2.9487770    
   935.83380       3.5106094      2.65028309E-02   2.9768267       2.9691930    
