      Energy            Data      Uncertainty     Th_initial      Th_final
   610.02612       1.8818825      0.52091473       1.8818824       1.8818824    
   610.06018       1.8838533      0.52091473       1.8838536       1.8838536    
   610.09412       1.8858454      0.52091473       1.8858454       1.8858454    
   610.12817       1.8878731      0.52091473       1.8878731       1.8878732    
   610.16211       1.8899219      0.52091473       1.8899219       1.8899220    
   610.19617       1.8920075      0.52091473       1.8920074       1.8920074    
   610.23010       1.8941143      0.52091473       1.8941144       1.8941144    
   610.26416       1.8962586      0.52091473       1.8962587       1.8962587    
   610.29822       1.8984293      0.52091473       1.8984290       1.8984292    
   610.33215       1.9006255      0.52091473       1.9006256       1.9006256    
   610.36621       1.9028606      0.52091473       1.9028606       1.9028606    
   610.40015       1.9051182      0.52091473       1.9051183       1.9051183    
   610.43427       1.9074198      0.52091473       1.9074198       1.9074198    
   610.46826       1.9097444      0.52091473       1.9097443       1.9097444    
   610.50232       1.9121048      0.52091473       1.9121050       1.9121050    
   610.53632       1.9144933      0.52091473       1.9144934       1.9144934    
   610.57037       1.9169189      0.52091473       1.9169189       1.9169189    
   610.60437       1.9193724      0.52091473       1.9193726       1.9193726    
   610.63849       1.9218684      0.52091473       1.9218686       1.9218686    
   610.67242       1.9243845      0.52091473       1.9243842       1.9243842    
   610.70648       1.9269431      0.52091473       1.9269431       1.9269431    
   610.74060       1.9295408      0.52091473       1.9295408       1.9295409    
   610.77454       1.9321587      0.52091473       1.9321587       1.9321587    
   610.80872       1.9348260      0.52091473       1.9348260       1.9348260    
   610.84271       1.9375186      0.52091473       1.9375187       1.9375187    
   610.87683       1.9402567      0.52091473       1.9402570       1.9402570    
   610.91089       1.9430261      0.52091473       1.9430261       1.9430262    
   610.94495       1.9458317      0.52091473       1.9458317       1.9458317    
   610.97900       1.9486738      0.52091473       1.9486737       1.9486737    
   611.01306       1.9515529      0.52091473       1.9515527       1.9515529    
   611.04712       1.9544692      0.52091473       1.9544692       1.9544692    
   611.08118       1.9574233      0.52091473       1.9574233       1.9574233    
   611.11523       1.9604154      0.52091473       1.9604155       1.9604156    
   611.14935       1.9634516      0.52091473       1.9634517       1.9634517    
   611.18341       1.9665214      0.52091473       1.9665211       1.9665211    
   611.21753       1.9696295      0.52091473       1.9696296       1.9696296    
   611.25171       1.9727895      0.52091473       1.9727893       1.9727893    
   611.28571       1.9759715      0.52091473       1.9759715       1.9759715    
   611.31989       1.9792116      0.52091473       1.9792116       1.9792116    
   611.35388       1.9824746      0.52091473       1.9824744       1.9824744    
   611.38806       1.9857965      0.52091473       1.9857965       1.9857965    
   611.42212       1.9891478      0.52091473       1.9891477       1.9891478    
   611.45624       1.9925467      0.52091473       1.9925469       1.9925469    
   611.49036       1.9959884      0.52091473       1.9959884       1.9959884    
   611.52441       1.9994662      0.52091473       1.9994659       1.9994659    
   611.55853       2.0029926      0.52091473       2.0029929       2.0029929    
   611.59271       2.0065632      0.52091473       2.0065629       2.0065629    
   611.62683       2.0101769      0.52091473       2.0101769       2.0101769    
   611.66095       2.0138350      0.52091473       2.0138350       2.0138350    
   611.69513       2.0175440      0.52091473       2.0175440       2.0175440    
   611.72919       2.0212843      0.52091473       2.0212846       2.0212846    
   611.76337       2.0250840      0.52091473       2.0250838       2.0250840    
   611.79742       2.0289149      0.52091473       2.0289149       2.0289149    
   611.83167       2.0328133      0.52091473       2.0328131       2.0328131    
   611.86578       2.0367434      0.52091473       2.0367434       2.0367434    
   611.89990       2.0407131      0.52091473       2.0407131       2.0407133    
   611.93408       2.0447443      0.52091473       2.0447445       2.0447447    
   611.96820       2.0488162      0.52091473       2.0488162       2.0488162    
   612.00238       2.0529430      0.52091473       2.0529430       2.0529430    
   612.03656       2.0571179      0.52091473       2.0571182       2.0571182    
   612.07068       2.0613346      0.52091473       2.0613344       2.0613344    
   612.10486       2.0656071      0.52091473       2.0656073       2.0656073    
   612.13898       2.0699215      0.52091473       2.0699215       2.0699215    
   612.17322       2.0742936      0.52091473       2.0742936       2.0742936    
   612.20740       2.0787158      0.52091473       2.0787156       2.0787158    
   612.24152       2.0831802      0.52091473       2.0831802       2.0831802    
   612.27570       2.0877032      0.52091473       2.0877035       2.0877035    
   612.30988       2.0922778      0.52091473       2.0922780       2.0922780    
   612.34406       2.0969043      0.52091473       2.0969043       2.0969043    
   612.37823       2.1015821      0.52091473       2.1015823       2.1015823    
   612.41235       2.1063037      0.52091473       2.1063039       2.1063039    
   612.44666       2.1110954      0.52091473       2.1110954       2.1110957    
   612.48083       2.1159315      0.52091473       2.1159313       2.1159315    
   612.51508       2.1208293      0.52091473       2.1208293       2.1208296    
   612.54926       2.1257720      0.52091473       2.1257722       2.1257722    
   612.58344       2.1307690      0.52091473       2.1307690       2.1307690    
   612.61761       2.1358199      0.52091473       2.1358199       2.1358199    
   612.65186       2.1409347      0.52091473       2.1409347       2.1409347    
   612.68604       2.1460953      0.52091473       2.1460953       2.1460953    
   612.72028       2.1513107      0.52091473       2.1513107       2.1513109    
   612.75446       2.1565821      0.52091473       2.1565819       2.1565819    
   612.78870       2.1619186      0.52091473       2.1619184       2.1619184    
   612.82294       2.1673114      0.52091473       2.1673114       2.1673114    
   612.85712       2.1727507      0.52091473       2.1727507       2.1727507    
   612.89142       2.1782670      0.52091473       2.1782670       2.1782670    
   612.92554       2.1838100      0.52091473       2.1838098       2.1838098    
   612.95990       2.1894405      0.52091473       2.1894405       2.1894405    
   612.99414       2.1951187      0.52091473       2.1951187       2.1951187    
   613.02832       2.2008440      0.52091473       2.2008440       2.2008440    
   613.06256       2.2066381      0.52091473       2.2066381       2.2066381    
   613.09674       2.2124796      0.52091473       2.2124796       2.2124796    
   613.13104       2.2184007      0.52091473       2.2184010       2.2184010    
   613.16528       2.2243705      0.52091473       2.2243705       2.2243705    
   613.19958       2.2303987      0.52091473       2.2303989       2.2303989    
   613.23383       2.2364862      0.52091473       2.2364864       2.2364867    
   613.26813       2.2426450      0.52091473       2.2426448       2.2426448    
   613.30231       2.2488396      0.52091473       2.2488399       2.2488399    
   613.33661       2.2551172      0.52091473       2.2551174       2.2551174    
   613.37085       2.2614431      0.52091473       2.2614431       2.2614434    
   613.40521       2.2678411      0.52091473       2.2678409       2.2678409    
   613.43945       2.2742867      0.52091473       2.2742870       2.2742870    
   613.47375       2.2808051      0.52091473       2.2808051       2.2808051    
   613.50800       2.2873719      0.52091473       2.2873716       2.2873716    
   613.54218       2.2939863      0.52091473       2.2939866       2.2939866    
   613.57654       2.3006983      0.52091473       2.3006983       2.3006983    
   613.61084       2.3074465      0.52091473       2.3074465       2.3074465    
   613.64514       2.3142676      0.52091473       2.3142674       2.3142674    
   613.67944       2.3211491      0.52091473       2.3211493       2.3211493    
   613.71375       2.3280919      0.52091473       2.3280921       2.3280921    
   613.74799       2.3350825      0.52091473       2.3350828       2.3350828    
   613.78235       2.3421602      0.52091473       2.3421600       2.3421600    
   613.81665       2.3492723      0.52091473       2.3492720       2.3492720    
   613.85101       2.3564711      0.52091473       2.3564711       2.3564711    
   613.88525       2.3637044      0.52091473       2.3637042       2.3637042    
   613.91956       2.3710110      0.52091473       2.3710113       2.3710113    
   613.95386       2.3783786      0.52091473       2.3783789       2.3783789    
   613.98816       2.3858070      0.52091473       2.3858068       2.3858068    
   614.02258       2.3933082      0.52091473       2.3933086       2.3933086    
   614.05688       2.4008567      0.52091473       2.4008567       2.4008570    
   614.09119       2.4084649      0.52091473       2.4084651       2.4084651    
   614.12549       2.4161329      0.52091473       2.4161329       2.4161332    
   614.15985       2.4238746      0.52091473       2.4238746       2.4238746    
   614.19421       2.4316614      0.52091473       2.4316614       2.4316614    
   614.22858       2.4395216      0.52091473       2.4395216       2.4395216    
   614.26288       2.4474266      0.52091473       2.4474263       2.4474263    
   614.29724       2.4554040      0.52091473       2.4554038       2.4554040    
   614.33160       2.4634397      0.52091473       2.4634399       2.4634399    
   614.36584       2.4715044      0.52091473       2.4715042       2.4715042    
   614.40033       2.4796703      0.52091473       2.4796705       2.4796705    
   614.43457       2.4878492      0.52091473       2.4878492       2.4878492    
   614.46899       2.4961298      0.52091473       2.4961295       2.4961295    
   614.50336       2.5044510      0.52091473       2.5044510       2.5044510    
   614.53772       2.5128288      0.52091473       2.5128286       2.5128286    
   614.57208       2.5212462      0.52091473       2.5212462       2.5212462    
   614.60651       2.5297496      0.52091473       2.5297494       2.5297494    
   614.64081       2.5382760      0.52091473       2.5382760       2.5382760    
   614.67523       2.5468876      0.52091473       2.5468874       2.5468874    
   614.70953       2.5555205      0.52091473       2.5555205       2.5555205    
   614.74402       2.5642381      0.52091473       2.5642378       2.5642378    
   614.77838       2.5729914      0.52091473       2.5729914       2.5729914    
   614.81274       2.5817959      0.52091473       2.5817959       2.5817959    
   614.84717       2.5906672      0.52091473       2.5906672       2.5906672    
   614.88147       2.5995562      0.52091473       2.5995560       2.5995560    
   614.91595       2.6085265      0.52091473       2.6085262       2.6085262    
   614.95038       2.6175451      0.52091473       2.6175449       2.6175449    
   614.98474       2.6265948      0.52091473       2.6265945       2.6265945    
   615.01917       2.6357076      0.52091473       2.6357074       2.6357074    
   615.05365       2.6448665      0.52091473       2.6448662       2.6448662    
   615.08801       2.6540532      0.52091473       2.6540530       2.6540530    
   615.12244       2.6633005      0.52091473       2.6633005       2.6633005    
   615.15680       2.6725743      0.52091473       2.6725743       2.6725743    
   615.19122       2.6819067      0.52091473       2.6819067       2.6819067    
   615.22571       2.6912804      0.52091473       2.6912804       2.6912804    
   615.26007       2.7006767      0.52091473       2.7006767       2.7006767    
   615.29456       2.7101457      0.52091473       2.7101462       2.7101462    
   615.32898       2.7196364      0.52091473       2.7196362       2.7196362    
   615.36340       2.7291458      0.52091473       2.7291455       2.7291455    
   615.39783       2.7387073      0.52091473       2.7387078       2.7387078    
   615.43225       2.7483037      0.52091473       2.7483039       2.7483039    
   615.46667       2.7579331      0.52091473       2.7579331       2.7579331    
   615.50116       2.7676117      0.52091473       2.7676117       2.7676117    
   615.53564       2.7773035      0.52091473       2.7773032       2.7773032    
   615.57013       2.7870412      0.52091473       2.7870414       2.7870414    
   615.60455       2.7967899      0.52091473       2.7967899       2.7967899    
   615.63898       2.8065648      0.52091473       2.8065646       2.8065646    
   615.67352       2.8163822      0.52091473       2.8163822       2.8163822    
   615.70789       2.8261876      0.52091473       2.8261876       2.8261876    
   615.74237       2.8360505      0.52091473       2.8360507       2.8360507    
   615.77686       2.8459344      0.52091473       2.8459346       2.8459346    
   615.81134       2.8558192      0.52091473       2.8558195       2.8558195    
   615.84583       2.8657401      0.52091473       2.8657401       2.8657401    
   615.88031       2.8756762      0.52091473       2.8756764       2.8756764    
   615.91473       2.8856091      0.52091473       2.8856091       2.8856091    
   615.94934       2.8955908      0.52091473       2.8955908       2.8955908    
   615.98370       2.9055297      0.52091473       2.9055293       2.9055293    
   616.01825       2.9155316      0.52091473       2.9155314       2.9155314    
   616.05273       2.9255228      0.52091473       2.9255230       2.9255230    
   616.08728       2.9355209      0.52091473       2.9355206       2.9355206    
   616.12177       2.9455228      0.52091473       2.9455225       2.9455225    
   616.15619       2.9555087      0.52091473       2.9555087       2.9555087    
   616.19073       2.9655321      0.52091473       2.9655318       2.9655318    
   616.22522       2.9755356      0.52091473       2.9755356       2.9755356    
   616.25977       2.9855366      0.52091473       2.9855366       2.9855363    
   616.29425       2.9955323      0.52091473       2.9955323       2.9955323    
   616.32880       3.0055397      0.52091473       3.0055397       3.0055397    
   616.36322       3.0155020      0.52091473       3.0155022       3.0155022    
   616.39789       3.0255082      0.52091473       3.0255082       3.0255082    
   616.43231       3.0354476      0.52091473       3.0354478       3.0354478    
   616.46686       3.0454090      0.52091473       3.0454090       3.0454090    
   616.50146       3.0553541      0.52091473       3.0553536       3.0553536    
   616.53595       3.0652623      0.52091473       3.0652621       3.0652621    
   616.57050       3.0751681      0.52091473       3.0751681       3.0751681    
   616.60498       3.0850344      0.52091473       3.0850341       3.0850341    
   616.63959       3.0948935      0.52091473       3.0948937       3.0948935    
   616.67413       3.1047268      0.52091473       3.1047266       3.1047266    
   616.70868       3.1145313      0.52091473       3.1145313       3.1145313    
   616.74316       3.1242881      0.52091473       3.1242881       3.1242881    
   616.77783       3.1340475      0.52091473       3.1340475       3.1340475    
   616.81232       3.1437376      0.52091473       3.1437376       3.1437376    
   616.84692       3.1534259      0.52091473       3.1534259       3.1534259    
   616.88147       3.1630583      0.52091473       3.1630583       3.1630583    
   616.91608       3.1726501      0.52091473       3.1726503       3.1726501    
   616.95062       3.1821995      0.52091473       3.1821995       3.1821995    
   616.98523       3.1917214      0.52091473       3.1917212       3.1917212    
   617.01978       3.2011619      0.52091473       3.2011621       3.2011621    
   617.05432       3.2105713      0.52091473       3.2105713       3.2105713    
   617.08887       3.2199302      0.52091473       3.2199299       3.2199299    
   617.12341       3.2292361      0.52091473       3.2292359       3.2292359    
   617.15814       3.2385206      0.52091473       3.2385204       3.2385204    
   617.19263       3.2476983      0.52091473       3.2476981       3.2476981    
   617.22723       3.2568505      0.52091473       3.2568502       3.2568502    
   617.26184       3.2659249      0.52091473       3.2659252       3.2659252    
   617.29645       3.2749538      0.52091473       3.2749538       3.2749538    
   617.33105       3.2839177      0.52091473       3.2839177       3.2839177    
   617.36560       3.2927990      0.52091473       3.2927988       3.2927988    
   617.40027       3.3016274      0.52091473       3.3016276       3.3016274    
   617.43494       3.3104019      0.52091473       3.3104014       3.3104014    
   617.46942       3.3190560      0.52091473       3.3190558       3.3190558    
   617.50415       3.3276832      0.52091473       3.3276832       3.3276832    
   617.53870       3.3362036      0.52091473       3.3362033       3.3362033    
   617.57330       3.3446612      0.52091473       3.3446612       3.3446612    
   617.60797       3.3530545      0.52091473       3.3530545       3.3530545    
   617.64258       3.3613362      0.52091473       3.3613362       3.3613362    
   617.67725       3.3695650      0.52091473       3.3695648       3.3695648    
   617.71185       3.3776939      0.52091473       3.3776937       3.3776937    
   617.74652       3.3857362      0.52091473       3.3857362       3.3857360    
   617.78113       3.3936903      0.52091473       3.3936903       3.3936903    
   617.81580       3.4015689      0.52091473       3.4015691       3.4015691    
   617.85040       3.4093285      0.52091473       3.4093285       3.4093285    
   617.88513       3.4170368      0.52091473       3.4170368       3.4170365    
   617.91968       3.4246092      0.52091473       3.4246092       3.4246089    
   617.95435       3.4321129      0.52091473       3.4321129       3.4321129    
   617.98907       3.4395192      0.52091473       3.4395192       3.4395192    
   618.02362       3.4468005      0.52091473       3.4468005       3.4468005    
   618.05835       3.4540210      0.52091473       3.4540210       3.4540210    
   618.09296       3.4611013      0.52091473       3.4611013       3.4611013    
   618.12769       3.4681170      0.52091473       3.4681170       3.4681170    
   618.16235       3.4750161      0.52091473       3.4750161       3.4750161    
   618.19702       3.4817979      0.52091473       3.4817977       3.4817977    
   618.23169       3.4884853      0.52091473       3.4884851       3.4884851    
   618.26642       3.4950769      0.52091473       3.4950767       3.4950767    
   618.30109       3.5015359      0.52091473       3.5015361       3.5015361    
   618.33575       3.5078981      0.52091473       3.5078979       3.5078979    
   618.37042       3.5141492      0.52091473       3.5141490       3.5141490    
   618.40515       3.5202882      0.52091473       3.5202882       3.5202882    
