      Energy            Data      Uncertainty     Th_initial      Th_final
  9.99999975E-06   24.894066       2.4894066       24.894066       24.894066    
  1.00113002E-05   24.880108       2.4880109       24.880108       24.880108    
  1.00224997E-05   24.866297       2.4866297       24.866297       24.866297    
  1.00338002E-05   24.852385       2.4852386       24.852385       24.852385    
  1.00449997E-05   24.838619       2.4838619       24.838621       24.838621    
  1.00563002E-05   24.824757       2.4824758       24.824757       24.824757    
  1.00674997E-05   24.811037       2.4811037       24.811037       24.811037    
  1.00788002E-05   24.797220       2.4797220       24.797220       24.797220    
  1.00899997E-05   24.783546       2.4783547       24.783546       24.783546    
  1.01013002E-05   24.769775       2.4769776       24.769775       24.769775    
  1.01124997E-05   24.756147       2.4756148       24.756147       24.756147    
  1.01237001E-05   24.742544       2.4742544       24.742544       24.742544    
  1.01349997E-05   24.728842       2.4728842       24.728842       24.728842    
  1.01462001E-05   24.715282       2.4715283       24.715282       24.715282    
  1.01574997E-05   24.701626       2.4701626       24.701626       24.701626    
  1.01687001E-05   24.688112       2.4688113       24.688112       24.688112    
  1.01799997E-05   24.674500       2.4674499       24.674500       24.674500    
  1.01913001E-05   24.660912       2.4660912       24.660912       24.660912    
  1.02024997E-05   24.647465       2.4647465       24.647465       24.647465    
  1.02138001E-05   24.633921       2.4633920       24.633921       24.633921    
  1.02249996E-05   24.620518       2.4620519       24.620518       24.620518    
  1.02362001E-05   24.607138       2.4607139       24.607138       24.607138    
  1.02474996E-05   24.593662       2.4593663       24.593662       24.593662    
  1.02588001E-05   24.580206       2.4580207       24.580206       24.580206    
  1.02699996E-05   24.566893       2.4566894       24.566893       24.566893    
  1.02812000E-05   24.553600       2.4553599       24.553600       24.553600    
  1.02924996E-05   24.540213       2.4540212       24.540213       24.540213    
  1.03038001E-05   24.526846       2.4526846       24.526846       24.526846    
  1.03149996E-05   24.513620       2.4513621       24.513620       24.513620    
  1.03262000E-05   24.500414       2.4500413       24.500414       24.500414    
  1.03374996E-05   24.487114       2.4487114       24.487114       24.487114    
  1.03487000E-05   24.473951       2.4473951       24.473951       24.473951    
  1.03599996E-05   24.460695       2.4460695       24.460695       24.460695    
  1.03713000E-05   24.447458       2.4447458       24.447458       24.447458    
  1.03824996E-05   24.434361       2.4434361       24.434361       24.434361    
  1.03938000E-05   24.421169       2.4421170       24.421169       24.421169    
  1.04049996E-05   24.408113       2.4408114       24.408113       24.408113    
  1.04163000E-05   24.394964       2.4394965       24.394964       24.394964    
  1.04274995E-05   24.381952       2.4381952       24.381952       24.381952    
  1.04388000E-05   24.368845       2.4368844       24.368845       24.368845    
  1.04500004E-05   24.355875       2.4355874       24.355875       24.355875    
  1.04612000E-05   24.342924       2.4342923       24.342924       24.342924    
  1.04725004E-05   24.329882       2.4329882       24.329882       24.329882    
  1.04837000E-05   24.316973       2.4316974       24.316973       24.316973    
  1.04950004E-05   24.303972       2.4303973       24.303972       24.303972    
  1.05061999E-05   24.291105       2.4291105       24.291105       24.291105    
  1.05175004E-05   24.278145       2.4278145       24.278145       24.278145    
  1.05286999E-05   24.265322       2.4265323       24.265322       24.265322    
  1.05400004E-05   24.252403       2.4252403       24.252403       24.252403    
  1.05511999E-05   24.239618       2.4239619       24.239618       24.239618    
  1.05625004E-05   24.226742       2.4226742       24.226742       24.226742    
  1.05738000E-05   24.213886       2.4213886       24.213886       24.213886    
  1.05850004E-05   24.201164       2.4201164       24.201164       24.201164    
  1.05961999E-05   24.188461       2.4188461       24.188461       24.188461    
  1.06075004E-05   24.175667       2.4175668       24.175667       24.175667    
  1.06187999E-05   24.162891       2.4162891       24.162891       24.162891    
  1.06300004E-05   24.150251       2.4150252       24.150251       24.150251    
  1.06411999E-05   24.137630       2.4137630       24.137630       24.137630    
  1.06525004E-05   24.124916       2.4124916       24.124916       24.124916    
  1.06637999E-05   24.112223       2.4112222       24.112223       24.112223    
  1.06750003E-05   24.099661       2.4099660       24.099661       24.099661    
  1.06861999E-05   24.087120       2.4087119       24.087120       24.087120    
  1.06975003E-05   24.074486       2.4074485       24.074486       24.074486    
  1.07086998E-05   24.061985       2.4061985       24.061985       24.061985    
  1.07200003E-05   24.049391       2.4049392       24.049391       24.049391    
  1.07311998E-05   24.036928       2.4036927       24.036928       24.036928    
  1.07425003E-05   24.024376       2.4024377       24.024376       24.024376    
  1.07537999E-05   24.011841       2.4011841       24.011841       24.011841    
  1.07650003E-05   23.999437       2.3999438       23.999437       23.999437    
  1.07762999E-05   23.986942       2.3986943       23.986942       23.986942    
  1.07875003E-05   23.974579       2.3974578       23.974579       23.974579    
  1.07986998E-05   23.962233       2.3962233       23.962233       23.962233    
  1.08100003E-05   23.949797       2.3949797       23.949797       23.949797    
  1.08212998E-05   23.937380       2.3937380       23.937380       23.937380    
  1.08325003E-05   23.925093       2.3925092       23.925093       23.925093    
  1.08436998E-05   23.912825       2.3912826       23.912825       23.912825    
  1.08550003E-05   23.900467       2.3900466       23.900467       23.900467    
  1.08662998E-05   23.888126       2.3888125       23.888126       23.888126    
  1.08775002E-05   23.875916       2.3875916       23.875916       23.875916    
  1.08886998E-05   23.863724       2.3863723       23.863724       23.863724    
  1.09000002E-05   23.851442       2.3851442       23.851442       23.851442    
  1.09111998E-05   23.839287       2.3839288       23.839287       23.839287    
  1.09225002E-05   23.827044       2.3827043       23.827044       23.827044    
  1.09337998E-05   23.814819       2.3814819       23.814819       23.814819    
  1.09450002E-05   23.802721       2.3802722       23.802721       23.802721    
  1.09562998E-05   23.790533       2.3790534       23.790533       23.790533    
  1.09675002E-05   23.778473       2.3778472       23.778473       23.778473    
  1.09787998E-05   23.766323       2.3766322       23.766323       23.766323    
  1.09900002E-05   23.754301       2.3754301       23.754301       23.754301    
  1.10012998E-05   23.742188       2.3742187       23.742188       23.742188    
  1.10125002E-05   23.730202       2.3730202       23.730202       23.730202    
  1.10236997E-05   23.718233       2.3718233       23.718233       23.718233    
  1.10350002E-05   23.706177       2.3706176       23.706177       23.706177    
  1.10461997E-05   23.694244       2.3694243       23.694244       23.694244    
  1.10575002E-05   23.682226       2.3682227       23.682226       23.682226    
  1.10686997E-05   23.670330       2.3670330       23.670330       23.670330    
  1.10800001E-05   23.658348       2.3658347       23.658348       23.658348    
  1.10911997E-05   23.646488       2.3646488       23.646488       23.646488    
  1.11025001E-05   23.634542       2.3634543       23.634542       23.634542    
  1.11137997E-05   23.622614       2.3622613       23.622614       23.622614    
  1.11250001E-05   23.610809       2.3610809       23.610809       23.610809    
  1.11475001E-05   23.587149       2.3587148       23.587149       23.587149    
  1.11700001E-05   23.563560       2.3563561       23.563560       23.563560    
  1.11925001E-05   23.540043       2.3540044       23.540043       23.540043    
  1.12150001E-05   23.516596       2.3516595       23.516596       23.516596    
  1.12375001E-05   23.493219       2.3493218       23.493219       23.493219    
  1.12600001E-05   23.469913       2.3469913       23.469913       23.469913    
  1.12825001E-05   23.446678       2.3446679       23.446678       23.446678    
  1.13050000E-05   23.423512       2.3423512       23.423512       23.423512    
  1.13275000E-05   23.400415       2.3400416       23.400415       23.400415    
  1.13500000E-05   23.377386       2.3377385       23.377386       23.377386    
  1.13725000E-05   23.354427       2.3354428       23.354427       23.354427    
  1.13950000E-05   23.331535       2.3331535       23.331535       23.331535    
  1.14175000E-05   23.308712       2.3308711       23.308712       23.308712    
  1.14400000E-05   23.285955       2.3285956       23.285955       23.285955    
  1.14625000E-05   23.263268       2.3263268       23.263268       23.263268    
  1.14850000E-05   23.240646       2.3240647       23.240646       23.240646    
  1.15074999E-05   23.218090       2.3218091       23.218090       23.218090    
  1.15299999E-05   23.195601       2.3195601       23.195601       23.195601    
  1.15524999E-05   23.173178       2.3173177       23.173178       23.173178    
  1.15749999E-05   23.150820       2.3150821       23.150820       23.150820    
  1.15974999E-05   23.128529       2.3128529       23.128529       23.128529    
  1.16199999E-05   23.106300       2.3106301       23.106300       23.106300    
  1.16424999E-05   23.084137       2.3084137       23.084137       23.084137    
  1.16649999E-05   23.062040       2.3062041       23.062040       23.062040    
  1.16874999E-05   23.040005       2.3040004       23.040005       23.040005    
  1.17099999E-05   23.018034       2.3018034       23.018034       23.018034    
  1.17324998E-05   22.996126       2.2996125       22.996126       22.996126    
  1.17549998E-05   22.974283       2.2974284       22.974283       22.974283    
  1.17774998E-05   22.952501       2.2952502       22.952501       22.952501    
  1.17999998E-05   22.930782       2.2930782       22.930782       22.930782    
  1.18224998E-05   22.909126       2.2909126       22.909126       22.909126    
  1.18449998E-05   22.887531       2.2887530       22.887531       22.887531    
  1.18674998E-05   22.865997       2.2865996       22.865997       22.865997    
  1.18899998E-05   22.844526       2.2844527       22.844526       22.844526    
  1.19124998E-05   22.823114       2.2823114       22.823114       22.823114    
  1.19349997E-05   22.801765       2.2801766       22.801765       22.801765    
  1.19574997E-05   22.780476       2.2780476       22.780476       22.780476    
  1.19799997E-05   22.759245       2.2759244       22.759245       22.759245    
  1.20024997E-05   22.738075       2.2738075       22.738075       22.738075    
  1.20249997E-05   22.716965       2.2716966       22.716965       22.716965    
  1.20474997E-05   22.695915       2.2695916       22.695915       22.695915    
  1.20699997E-05   22.674923       2.2674923       22.674923       22.674923    
  1.20924997E-05   22.653990       2.2653990       22.653990       22.653990    
  1.21149997E-05   22.633116       2.2633116       22.633116       22.633116    
  1.21374997E-05   22.612299       2.2612300       22.612299       22.612299    
  1.21599996E-05   22.591541       2.2591541       22.591541       22.591541    
  1.21824996E-05   22.570841       2.2570841       22.570841       22.570841    
  1.22049996E-05   22.550198       2.2550197       22.550198       22.550198    
  1.22274996E-05   22.529612       2.2529612       22.529612       22.529612    
  1.22499996E-05   22.509083       2.2509084       22.509083       22.509083    
  1.22949996E-05   22.468195       2.2468195       22.468195       22.468195    
  1.23399996E-05   22.427530       2.2427530       22.427530       22.427530    
  1.23850004E-05   22.387089       2.2387090       22.387089       22.387089    
  1.24300004E-05   22.346869       2.2346869       22.346869       22.346869    
  1.24750004E-05   22.306866       2.2306867       22.306866       22.306866    
  1.25200004E-05   22.267078       2.2267079       22.267078       22.267078    
  1.25650004E-05   22.227509       2.2227509       22.227509       22.227509    
  1.26100003E-05   22.188148       2.2188148       22.188148       22.188148    
  1.26550003E-05   22.149000       2.2149000       22.149000       22.149000    
  1.27000003E-05   22.110062       2.2110062       22.110062       22.110062    
  1.27450003E-05   22.071329       2.2071328       22.071329       22.071329    
  1.27900003E-05   22.032801       2.2032800       22.032801       22.032801    
  1.28350002E-05   21.994478       2.1994479       21.994478       21.994478    
  1.28800002E-05   21.956354       2.1956353       21.956354       21.956354    
  1.29250002E-05   21.918432       2.1918433       21.918432       21.918432    
  1.29700002E-05   21.880709       2.1880708       21.880709       21.880709    
  1.30150001E-05   21.843180       2.1843181       21.843180       21.843180    
  1.30600001E-05   21.805847       2.1805847       21.805847       21.805847    
  1.31050001E-05   21.768707       2.1768708       21.768707       21.768707    
  1.31500001E-05   21.731758       2.1731758       21.731758       21.731758    
  1.31950001E-05   21.695000       2.1694999       21.695000       21.695000    
  1.32400000E-05   21.658428       2.1658428       21.658428       21.658428    
  1.32850000E-05   21.622044       2.1622043       21.622044       21.622044    
  1.33300000E-05   21.585844       2.1585844       21.585844       21.585844    
  1.33750000E-05   21.549828       2.1549828       21.549828       21.549828    
  1.34200000E-05   21.513994       2.1513994       21.513994       21.513994    
  1.34649999E-05   21.478340       2.1478341       21.478340       21.478340    
  1.35099999E-05   21.442865       2.1442866       21.442865       21.442865    
  1.35549999E-05   21.407566       2.1407566       21.407566       21.407566    
  1.35999999E-05   21.372444       2.1372445       21.372444       21.372444    
  1.36449999E-05   21.337498       2.1337497       21.337498       21.337498    
  1.36899998E-05   21.302723       2.1302724       21.302723       21.302723    
  1.37349998E-05   21.268120       2.1268120       21.268120       21.268120    
  1.37799998E-05   21.233686       2.1233687       21.233686       21.233686    
  1.38249998E-05   21.199423       2.1199422       21.199423       21.199423    
  1.38699997E-05   21.165327       2.1165328       21.165327       21.165327    
  1.39149997E-05   21.131395       2.1131396       21.131395       21.131395    
  1.39599997E-05   21.097630       2.1097629       21.097630       21.097630    
  1.40049997E-05   21.064028       2.1064029       21.064028       21.064028    
  1.40499997E-05   21.030588       2.1030588       21.030588       21.030588    
  1.40949996E-05   20.997309       2.0997310       20.997309       20.997309    
  1.41399996E-05   20.964188       2.0964189       20.964188       20.964188    
  1.41849996E-05   20.931227       2.0931227       20.931227       20.931227    
  1.42299996E-05   20.898420       2.0898421       20.898420       20.898420    
  1.42749996E-05   20.865772       2.0865772       20.865772       20.865772    
  1.43200004E-05   20.833277       2.0833278       20.833277       20.833277    
  1.43650004E-05   20.800936       2.0800936       20.800936       20.800936    
  1.44100004E-05   20.768747       2.0768747       20.768747       20.768747    
  1.44550004E-05   20.736708       2.0736709       20.736708       20.736708    
  1.45000004E-05   20.704821       2.0704820       20.704821       20.704821    
  1.45900003E-05   20.641487       2.0641487       20.641487       20.641487    
  1.46800003E-05   20.578739       2.0578740       20.578739       20.578739    
  1.47700002E-05   20.516569       2.0516570       20.516569       20.516569    
  1.48600002E-05   20.454966       2.0454965       20.454966       20.454966    
  1.49500001E-05   20.393921       2.0393920       20.393921       20.393921    
  1.50400001E-05   20.333427       2.0333428       20.333427       20.333427    
  1.51300001E-05   20.273476       2.0273476       20.273476       20.273476    
  1.52200000E-05   20.214058       2.0214057       20.214058       20.214058    
  1.53100009E-05   20.155169       2.0155168       20.155169       20.155169    
  1.54000008E-05   20.096796       2.0096796       20.096796       20.096796    
  1.54900008E-05   20.038935       2.0038934       20.038935       20.038935    
  1.55800008E-05   19.981579       1.9981579       19.981579       19.981579    
  1.56700007E-05   19.924719       1.9924719       19.924719       19.924719    
  1.57600007E-05   19.868347       1.9868348       19.868347       19.868347    
  1.58500006E-05   19.812460       1.9812460       19.812460       19.812460    
  1.59400006E-05   19.757048       1.9757048       19.757048       19.757048    
  1.60300006E-05   19.702103       1.9702103       19.702103       19.702103    
  1.61200005E-05   19.647623       1.9647623       19.647623       19.647623    
  1.62100005E-05   19.593597       1.9593598       19.593597       19.593597    
  1.63000004E-05   19.540022       1.9540021       19.540022       19.540022    
  1.63900004E-05   19.486891       1.9486891       19.486891       19.486891    
  1.64800003E-05   19.434196       1.9434197       19.434196       19.434196    
  1.65700003E-05   19.381933       1.9381933       19.381933       19.381933    
  1.66600003E-05   19.330095       1.9330095       19.330095       19.330095    
  1.67500002E-05   19.278679       1.9278679       19.278679       19.278679    
  1.68400002E-05   19.227674       1.9227674       19.227674       19.227674    
  1.69300001E-05   19.177080       1.9177080       19.177080       19.177080    
  1.70200001E-05   19.126890       1.9126890       19.126890       19.126890    
  1.71100000E-05   19.077097       1.9077097       19.077097       19.077097    
  1.72000000E-05   19.027697       1.9027697       19.027697       19.027697    
  1.72900000E-05   18.978685       1.8978685       18.978685       18.978685    
  1.73799999E-05   18.930056       1.8930056       18.930056       18.930056    
  1.74699999E-05   18.881804       1.8881804       18.881804       18.881804    
  1.75599998E-05   18.833925       1.8833926       18.833925       18.833925    
  1.76499998E-05   18.786413       1.8786414       18.786413       18.786413    
  1.77399997E-05   18.739265       1.8739265       18.739265       18.739265    
  1.78299997E-05   18.692478       1.8692478       18.692478       18.692478    
  1.79199997E-05   18.646044       1.8646044       18.646044       18.646044    
  1.80099996E-05   18.599958       1.8599958       18.599958       18.599958    
  1.80999996E-05   18.554220       1.8554220       18.554220       18.554220    
  1.81899995E-05   18.508823       1.8508823       18.508823       18.508823    
  1.82799995E-05   18.463762       1.8463762       18.463762       18.463762    
  1.83699995E-05   18.419035       1.8419034       18.419035       18.419035    
  1.84599994E-05   18.374636       1.8374636       18.374636       18.374636    
