      Energy            Data      Uncertainty     Th_initial      Th_final
   760.01007       2.5632658      0.25632659       2.5587573       0.0000000    
   760.05731       2.5638804      0.25638804       2.5593681       0.0000000    
   760.10461       2.5645103      0.25645104       2.5599942       0.0000000    
   760.15186       2.5651546      0.25651544       2.5606346       0.0000000    
   760.19916       2.5658147      0.25658149       2.5612910       0.0000000    
   760.24652       2.5664904      0.25664905       2.5619631       0.0000000    
   760.29376       2.5671809      0.25671810       2.5626500       0.0000000    
   760.34106       2.5678885      0.25678885       2.5633540       0.0000000    
   760.38831       2.5686116      0.25686115       2.5640736       0.0000000    
   760.43567       2.5693533      0.25693533       2.5648117       0.0000000    
   760.48303       2.5701122      0.25701123       2.5655670       0.0000000    
   760.53033       2.5708864      0.25708863       2.5663378       0.0000000    
   760.57764       2.5716794      0.25716794       2.5671272       0.0000000    
   760.62506       2.5724924      0.25724924       2.5679371       0.0000000    
   760.67230       2.5733206      0.25733206       2.5687621       0.0000000    
   760.71967       2.5741699      0.25741699       2.5696080       0.0000000    
   760.76703       2.5750372      0.25750372       2.5704722       0.0000000    
   760.81433       2.5759239      0.25759238       2.5713556       0.0000000    
   760.86176       2.5768328      0.25768328       2.5722616       0.0000000    
   760.90900       2.5777586      0.25777584       2.5731840       0.0000000    
   760.95642       2.5787084      0.25787085       2.5741310       0.0000000    
   761.00378       2.5796781      0.25796780       2.5750978       0.0000000    
   761.05115       2.5806680      0.25806680       2.5760849       0.0000000    
   761.09851       2.5816810      0.25816810       2.5770950       0.0000000    
   761.14594       2.5827179      0.25827178       2.5781291       0.0000000    
   761.19324       2.5837746      0.25837746       2.5791831       0.0000000    
   761.24060       2.5848558      0.25848559       2.5802617       0.0000000    
   761.28809       2.5859621      0.25859621       2.5813653       0.0000000    
   761.33539       2.5870895      0.25870895       2.5824902       0.0000000    
   761.38287       2.5882461      0.25882462       2.5836444       0.0000000    
   761.43024       2.5894246      0.25894246       2.5848205       0.0000000    
   761.47760       2.5906284      0.25906283       2.5860221       0.0000000    
   761.52509       2.5918601      0.25918600       2.5872514       0.0000000    
   761.57245       2.5931165      0.25931165       2.5885057       0.0000000    
   761.61993       2.5944033      0.25944033       2.5897903       0.0000000    
   761.66736       2.5957160      0.25957161       2.5911012       0.0000000    
   761.71472       2.5970550      0.25970548       2.5924382       0.0000000    
   761.76221       2.5984244      0.25984246       2.5938058       0.0000000    
   761.80969       2.5998249      0.25998250       2.5952046       0.0000000    
   761.85706       2.6012516      0.26012516       2.5966294       0.0000000    
   761.90454       2.6027122      0.26027122       2.5980885       0.0000000    
   761.95197       2.6041999      0.26041999       2.5995746       0.0000000    
   761.99939       2.6057212      0.26057214       2.6010942       0.0000000    
   762.04694       2.6072786      0.26072785       2.6026504       0.0000000    
   762.09436       2.6088648      0.26088649       2.6042354       0.0000000    
   762.14178       2.6104844      0.26104844       2.6058538       0.0000000    
   762.18933       2.6121402      0.26121402       2.6075084       0.0000000    
   762.23676       2.6138284      0.26138285       2.6091957       0.0000000    
   762.28430       2.6155567      0.26155567       2.6109231       0.0000000    
   762.33179       2.6173189      0.26173189       2.6126845       0.0000000    
   762.37927       2.6191156      0.26191157       2.6144803       0.0000000    
   762.42676       2.6209521      0.26209521       2.6163163       0.0000000    
   762.47418       2.6228242      0.26228243       2.6181881       0.0000000    
   762.52173       2.6247406      0.26247406       2.6201041       0.0000000    
   762.56927       2.6266942      0.26266941       2.6220572       0.0000000    
   762.61676       2.6286881      0.26286882       2.6240511       0.0000000    
   762.66425       2.6307235      0.26307234       2.6260865       0.0000000    
   762.71185       2.6328065      0.26328066       2.6281695       0.0000000    
   762.75934       2.6349242      0.26349241       2.6302874       0.0000000    
   762.80688       2.6370912      0.26370913       2.6324549       0.0000000    
   762.85443       2.6393030      0.26393029       2.6346672       0.0000000    
   762.90192       2.6415572      0.26415572       2.6369219       0.0000000    
   762.94952       2.6438608      0.26438609       2.6392264       0.0000000    
   762.99701       2.6462088      0.26462087       2.6415751       0.0000000    
   763.04456       2.6486080      0.26486081       2.6439750       0.0000000    
   763.09210       2.6510561      0.26510561       2.6464245       0.0000000    
   763.13971       2.6535544      0.26535544       2.6489241       0.0000000    
   763.18732       2.6561072      0.26561072       2.6514783       0.0000000    
   763.23486       2.6587086      0.26587087       2.6540813       0.0000000    
   763.28241       2.6613629      0.26613629       2.6567373       0.0000000    
   763.33002       2.6640713      0.26640713       2.6594477       0.0000000    
   763.37769       2.6668420      0.26668420       2.6622205       0.0000000    
   763.42517       2.6696577      0.26696578       2.6650383       0.0000000    
   763.47284       2.6725380      0.26725382       2.6679211       0.0000000    
   763.52032       2.6754689      0.26754689       2.6708546       0.0000000    
   763.56793       2.6784670      0.26784670       2.6738553       0.0000000    
   763.61560       2.6815295      0.26815295       2.6769207       0.0000000    
   763.66321       2.6846454      0.26846454       2.6800399       0.0000000    
   763.71082       2.6878283      0.26878282       2.6832261       0.0000000    
   763.75842       2.6910751      0.26910752       2.6864762       0.0000000    
   763.80603       2.6943827      0.26943827       2.6897876       0.0000000    
   763.85376       2.6977699      0.26977700       2.6931784       0.0000000    
   763.90137       2.7012157      0.27012157       2.6966286       0.0000000    
   763.94891       2.7047257      0.27047259       2.7001426       0.0000000    
   763.99664       2.7083149      0.27083150       2.7037365       0.0000000    
   764.04419       2.7119660      0.27119660       2.7073922       0.0000000    
   764.09192       2.7157044      0.27157044       2.7111356       0.0000000    
   764.13959       2.7195067      0.27195066       2.7149432       0.0000000    
   764.18719       2.7233844      0.27233845       2.7188261       0.0000000    
   764.23486       2.7273438      0.27273437       2.7227912       0.0000000    
   764.28265       2.7313867      0.27313867       2.7268398       0.0000000    
   764.33026       2.7354982      0.27354982       2.7309575       0.0000000    
   764.37793       2.7396958      0.27396959       2.7351615       0.0000000    
   764.42566       2.7439814      0.27439815       2.7394536       0.0000000    
   764.47327       2.7483335      0.27483335       2.7438126       0.0000000    
   764.52100       2.7527878      0.27527878       2.7482741       0.0000000    
   764.56860       2.7573168      0.27573168       2.7528105       0.0000000    
   764.61639       2.7619457      0.27619457       2.7574472       0.0000000    
   764.66412       2.7666645      0.27666646       2.7621739       0.0000000    
   764.71173       2.7714615      0.27714616       2.7669792       0.0000000    
   764.75952       2.7763636      0.27763635       2.7718899       0.0000000    
   764.80725       2.7813599      0.27813599       2.7768950       0.0000000    
   764.85492       2.7864451      0.27864450       2.7819893       0.0000000    
   764.90271       2.7916338      0.27916339       2.7871878       0.0000000    
   764.95044       2.7969215      0.27969214       2.7924852       0.0000000    
   764.99811       2.8023021      0.28023022       2.7978761       0.0000000    
   765.04590       2.8077915      0.28077915       2.8033760       0.0000000    
   765.09369       2.8133914      0.28133914       2.8089869       0.0000000    
   765.14136       2.8190815      0.28190815       2.8146880       0.0000000    
   765.18921       2.8248930      0.28248930       2.8205111       0.0000000    
   765.23688       2.8307970      0.28307968       2.8264270       0.0000000    
   765.28461       2.8368180      0.28368181       2.8324604       0.0000000    
   765.33252       2.8429661      0.28429660       2.8386211       0.0000000    
   765.38019       2.8492024      0.28492025       2.8448708       0.0000000    
   765.42798       2.8555694      0.28555694       2.8512511       0.0000000    
   765.47577       2.8620436      0.28620437       2.8577392       0.0000000    
   765.52350       2.8686347      0.28686348       2.8643448       0.0000000    
   765.57135       2.8753617      0.28753617       2.8710868       0.0000000    
   765.61920       2.8822005      0.28822005       2.8779407       0.0000000    
   765.66693       2.8891516      0.28891516       2.8849075       0.0000000    
   765.71472       2.8962345      0.28962344       2.8920066       0.0000000    
   765.76251       2.9034326      0.29034325       2.8992212       0.0000000    
   765.81036       2.9107752      0.29107752       2.9065812       0.0000000    
   765.85822       2.9182353      0.29182354       2.9140589       0.0000000    
   765.90594       2.9258139      0.29258138       2.9216557       0.0000000    
   765.95380       2.9335420      0.29335421       2.9294024       0.0000000    
   766.00171       2.9414010      0.29414010       2.9372807       0.0000000    
   766.04950       2.9493818      0.29493818       2.9452810       0.0000000    
   766.09729       2.9574955      0.29574955       2.9534152       0.0000000    
   766.14526       2.9657650      0.29657650       2.9617054       0.0000000    
   766.19305       2.9741478      0.29741478       2.9701097       0.0000000    
   766.24084       2.9826665      0.29826665       2.9786506       0.0000000    
   766.28876       2.9913332      0.29913333       2.9873400       0.0000000    
   766.33655       3.0001261      0.30001262       2.9961562       0.0000000    
   766.38452       3.0090806      0.30090806       3.0051346       0.0000000    
   766.43231       3.0181506      0.30181506       3.0142291       0.0000000    
   766.48016       3.0273716      0.30273718       3.0234754       0.0000000    
   766.52814       3.0367448      0.30367449       3.0328746       0.0000000    
   766.57593       3.0462334      0.30462334       3.0423899       0.0000000    
   766.62390       3.0558875      0.30558875       3.0520711       0.0000000    
   766.67181       3.0656819      0.30656821       3.0618939       0.0000000    
   766.71960       3.0755911      0.30755910       3.0718317       0.0000000    
   766.76758       3.0856664      0.30856663       3.0819368       0.0000000    
   766.81549       3.0958817      0.30958816       3.0921824       0.0000000    
   766.86340       3.1062231      0.31062230       3.1025550       0.0000000    
   766.91132       3.1167169      0.31167167       3.1130807       0.0000000    
   766.95929       3.1273625      0.31273624       3.1237595       0.0000000    
   767.00720       3.1381176      0.31381175       3.1345484       0.0000000    
   767.05511       3.1490228      0.31490228       3.1454883       0.0000000    
   767.10303       3.1600482      0.31600481       3.1565492       0.0000000    
   767.15094       3.1712213      0.31712213       3.1677587       0.0000000    
   767.19891       3.1825409      0.31825408       3.1791158       0.0000000    
   767.24689       3.1939754      0.31939754       3.1905890       0.0000000    
   767.29480       3.2055378      0.32055378       3.2021906       0.0000000    
   767.34277       3.2172258      0.32172257       3.2139189       0.0000000    
   767.39069       3.2290366      0.32290366       3.2257714       0.0000000    
   767.43866       3.2409832      0.32409832       3.2377608       0.0000000    
   767.48669       3.2530475      0.32530475       3.2498689       0.0000000    
   767.53461       3.2652104      0.32652104       3.2620764       0.0000000    
   767.58264       3.2775002      0.32775003       3.2744122       0.0000000    
   767.63062       3.2898972      0.32898971       3.2868564       0.0000000    
   767.67859       3.3023813      0.33023813       3.2993891       0.0000000    
   767.72656       3.3149812      0.33149812       3.3120384       0.0000000    
   767.77448       3.3276594      0.33276594       3.3247676       0.0000000    
   767.82263       3.3404775      0.33404773       3.3376381       0.0000000    
   767.87061       3.3533480      0.33533481       3.3505623       0.0000000    
   767.91858       3.3662817      0.33662817       3.3635511       0.0000000    
   767.96655       3.3793070      0.33793071       3.3766327       0.0000000    
   768.01471       3.3924358      0.33924359       3.3898194       0.0000000    
   768.06262       3.4055762      0.34055763       3.4030192       0.0000000    
   768.11072       3.4188080      0.34188080       3.4163117       0.0000000    
   768.15875       3.4320900      0.34320900       3.4296565       0.0000000    
   768.20667       3.4453814      0.34453815       3.4430120       0.0000000    
   768.25482       3.4587617      0.34587616       3.4564579       0.0000000    
   768.30286       3.4721539      0.34721538       3.4699178       0.0000000    
   768.35089       3.4855509      0.34855509       3.4833839       0.0000000    
   768.39899       3.4989972      0.34989971       3.4969010       0.0000000    
   768.44696       3.5123975      0.35123974       3.5103741       0.0000000    
   768.49506       3.5258484      0.35258484       3.5238996       0.0000000    
   768.54315       3.5392716      0.35392717       3.5373995       0.0000000    
   768.59119       3.5526764      0.35526764       3.5508828       0.0000000    
   768.63928       3.5660710      0.35660711       3.5643582       0.0000000    
   768.68744       3.5794294      0.35794294       3.5777993       0.0000000    
   768.73541       3.5927076      0.35927075       3.5911622       0.0000000    
   768.78357       3.6059659      0.36059660       3.6045074       0.0000000    
   768.83167       3.6191599      0.36191601       3.6177909       0.0000000    
   768.87976       3.6322634      0.36322635       3.6309862       0.0000000    
   768.92786       3.6453011      0.36453012       3.6441178       0.0000000    
   768.97607       3.6582627      0.36582628       3.6571763       0.0000000    
   769.02405       3.6710720      0.36710721       3.6700840       0.0000000    
   769.07227       3.6838193      0.36838192       3.6829329       0.0000000    
   769.12030       3.6964118      0.36964118       3.6956296       0.0000000    
   769.16846       3.7088892      0.37088892       3.7082140       0.0000000    
   769.21661       3.7212417      0.37212417       3.7206764       0.0000000    
   769.26471       3.7334118      0.37334117       3.7329588       0.0000000    
   769.31287       3.7454534      0.37454534       3.7451160       0.0000000    
   769.36102       3.7573094      0.37573093       3.7570906       0.0000000    
   769.40912       3.7689869      0.37689871       3.7688897       0.0000000    
   769.45734       3.7804914      0.37804914       3.7805192       0.0000000    
   769.50549       3.7917988      0.37917989       3.7919548       0.0000000    
   769.55365       3.8028858      0.38028857       3.8031733       0.0000000    
   769.60187       3.8137872      0.38137871       3.8142099       0.0000000    
   769.65002       3.8244379      0.38244379       3.8249991       0.0000000    
   769.69812       3.8348587      0.38348585       3.8355620       0.0000000    
   769.74634       3.8450549      0.38450548       3.8459044       0.0000000    
   769.79462       3.8550310      0.38550311       3.8560309       0.0000000    
   769.84277       3.8647163      0.38647163       3.8658700       0.0000000    
   769.89093       3.8741550      0.38741550       3.8754668       0.0000000    
   769.93909       3.8833168      0.38833168       3.8847909       0.0000000    
   769.98730       3.8922310      0.38922310       3.8938718       0.0000000    
   770.03558       3.9008677      0.39008677       3.9026799       0.0000000    
   770.08374       3.9092116      0.39092118       3.9111993       0.0000000    
   770.13196       3.9172695      0.39172694       3.9194376       0.0000000    
   770.18024       3.9250569      0.39250571       3.9274108       0.0000000    
   770.22845       3.9325304      0.39325303       3.9350743       0.0000000    
   770.27667       3.9397159      0.39397159       3.9424555       0.0000000    
   770.32489       3.9465926      0.39465925       3.9495327       0.0000000    
   770.37305       3.9531677      0.39531678       3.9563138       0.0000000    
   770.42139       3.9594553      0.39594552       3.9628136       0.0000000    
   770.46967       3.9654372      0.39654371       3.9690135       0.0000000    
   770.51788       3.9710982      0.39710981       3.9748979       0.0000000    
   770.56616       3.9764678      0.39764678       3.9804974       0.0000000    
   770.61432       3.9815121      0.39815122       3.9857769       0.0000000    
   770.66266       3.9862773      0.39862773       3.9907851       0.0000000    
   770.71094       3.9907267      0.39907268       3.9954834       0.0000000    
   770.75922       3.9948752      0.39948753       3.9998875       0.0000000    
   770.80750       3.9987295      0.39987296       4.0040050       0.0000000    
   770.85583       4.0022874      0.40022874       4.0078335       0.0000000    
   770.90405       4.0055480      0.40055481       4.0113716       0.0000000    
   770.95239       4.0085239      0.40085238       4.0146327       0.0000000    
   771.00073       4.0112181      0.40112180       4.0176201       0.0000000    
   771.04895       4.0136223      0.40136224       4.0203252       0.0000000    
   771.09729       4.0157609      0.40157610       4.0227737       0.0000000    
   771.14569       4.0176296      0.40176296       4.0249610       0.0000000    
   771.19391       4.0192308      0.40192309       4.0268884       0.0000000    
   771.24225       4.0205770      0.40205771       4.0285707       0.0000000    
   771.29059       4.0216737      0.40216738       4.0300126       0.0000000    
   771.33887       4.0225272      0.40225273       4.0312209       0.0000000    
   771.38727       4.0231466      0.40231466       4.0322056       0.0000000    
   771.43555       4.0235381      0.40235382       4.0329714       0.0000000    
   771.48395       4.0237107      0.40237108       4.0335298       0.0000000    
   771.53229       4.0236726      0.40236726       4.0338879       0.0000000    
   771.58063       4.0234332      0.40234333       4.0340548       0.0000000    
   771.62903       4.0230012      0.40230012       4.0340409       0.0000000    
   771.67737       4.0223861      0.40223861       4.0338554       0.0000000    
