      Energy            Data      Uncertainty     Th_initial      Th_final
   79.000000       5.4819102      0.54819101       5.5017543       5.5002608    
   80.000000       5.4614248      0.54614300       5.4819102       5.4803519    
   81.000000       5.4401989      0.54402000       5.4614253       5.4597931    
   82.000000       5.4181190      0.54181200       5.4401989       5.4384832    
   83.000000       5.3950610      0.53950602       5.4181194       5.4163094    
   84.000000       5.3708868      0.53708899       5.3950615       5.3931446    
   85.000000       5.3454418      0.53454399       5.3708873       5.3688493    
   86.000000       5.3185549      0.53185600       5.3454423       5.3432670    
   87.000000       5.2900372      0.52900398       5.3185549       5.3162246    
   88.000000       5.2596860      0.52596903       5.2900372       5.2875323    
   89.000000       5.2272921      0.52272898       5.2596860       5.2569857    
   90.000000       5.1926498      0.51926500       5.2272916       5.2243733    
   91.000000       5.1555958      0.51555997       5.1926498       5.1894922    
   92.000000       5.1160712      0.51160699       5.1555963       5.1521845    
   93.000000       5.0742569      0.50742602       5.1160712       5.1124043    
   94.000000       5.0308528      0.50308502       5.0742569       5.0703659    
   95.000000       4.9876809      0.49876800       5.0308528       5.0268412    
   96.000000       4.9490371      0.49490401       4.9876814       4.9838114    
   97.000000       4.9249258      0.49249300       4.9490371       4.9459314    
   98.000000       4.9405708      0.49405700       4.9249263       4.9240737    
   99.000000       5.0641360      0.50641400       4.9405708       4.9458566    
   100.00000       5.4992070      0.54992098       5.0641356       5.0869212    
   101.00000       5.5797610      0.55797601       5.4992075       5.5776649    
   101.10000       5.6712160      0.56712198       5.5797591       5.6689110    
   101.20000       5.7752280      0.57752299       5.6712127       5.7727027    
   101.30000       5.8937678      0.58937699       5.7752309       5.8910131    
   101.40000       6.0291882      0.60291898       5.8937707       6.0261736    
   101.50000       6.1843128      0.61843097       6.0291882       6.1810107    
   101.60000       6.3625541      0.63625503       6.1843095       6.3589334    
   101.70000       6.5680609      0.65680599       6.3625484       6.5640898    
   101.80000       6.8059168      0.68059200       6.5680676       6.8015733    
   101.90000       7.0824008      0.70823997       6.8059225       7.0776248    
   102.00000       7.4053349      0.74053401       7.0824008       7.4000721    
   102.10000       7.7845612      0.77845597       7.4053278       7.7787509    
   102.20000       8.2325935      0.82325900       7.7845483       8.2261734    
   102.30000       8.7655430      0.87655401       8.2326088       8.7584734    
   102.40000       9.4044189      0.94044203       8.7655544       9.3965788    
   102.50000       10.177052       1.0177050       9.4044189       10.168328    
   102.60000       11.120945       1.1120950       10.177034       11.111217    
   102.70000       12.287676       1.2287680       11.120914       12.276817    
   102.80000       13.749889       1.3749890       12.287715       13.737861    
   102.90000       15.612905       1.5612910       13.749922       15.599453    
   103.00000       18.035074       1.8035070       15.612905       18.020006    
   103.10000       21.266207       2.1266210       18.035017       21.249344    
   103.20000       25.726955       2.5726950       21.266087       25.708214    
   103.30000       32.187668       3.2187669       25.727076       32.167686    
   103.40000       42.186306       4.2186308       32.187656       42.165951    
   103.50000       58.954647       5.8954649       42.185703       58.939320    
   103.60000       89.149117       8.9149122       58.952454       89.158409    
   103.70000       145.09285       14.509285       89.143700       145.18147    
   103.80000       245.36003       24.536003       145.08678       245.64864    
   103.90000       409.09503       40.909504       245.34912       409.73401    
   104.00000       640.54785       64.054787       409.07709       641.62799    
   104.10000       909.60071       90.960075       640.52332       910.96979    
   104.20000       1146.8772       114.68772       909.57495       1148.0486    
   104.30000       1269.8745       126.98745       1146.8755       1270.1869    
   104.40000       1230.5811       123.05811       1269.8795       1229.5995    
   104.50000       1047.0706       104.70705       1230.5975       1044.9449    
   104.60000       790.64215       79.064217       1047.1073       787.99530    
   104.70000       540.70282       54.070282       790.68158       538.22150    
   104.80000       346.20120       34.620121       540.72516       344.28183    
   104.90000       217.39023       21.739023       346.22006       216.10884    
   105.00000       140.84663       14.084663       217.40395       140.06015    
   105.10000       97.580490       9.7580490       140.85481       97.107109    
   105.20000       72.827492       7.2827492       97.584419       72.531036    
   105.30000       57.781780       5.7781782       72.827957       57.581501    
   105.40000       47.892075       4.7892070       57.781837       47.747250    
   105.50000       40.925621       4.0925622       47.892147       40.814869    
   105.60000       35.758503       3.5758500       40.925755       35.670326    
   105.70000       31.781208       3.1781211       35.758640       31.708912    
   105.80000       28.634130       2.8634131       31.781103       28.573349    
   105.90000       26.089670       2.6089671       28.634073       26.037857    
   106.00000       23.996021       2.3996019       26.089670       23.951246    
   106.10000       22.247852       2.2247851       23.996059       22.208698    
   106.20000       20.769775       2.0769770       22.247900       20.735176    
   106.30000       19.506453       1.9506450       20.769733       19.475531    
   106.40000       18.416391       1.8416390       19.506430       18.388622    
   106.50000       17.467909       1.7467910       18.416391       17.442808    
   106.60000       16.636419       1.6636420       17.467926       16.613594    
   106.70000       15.902590       1.5902590       16.636444       15.881703    
   106.80000       15.251021       1.5251020       15.902569       15.231759    
   106.90000       14.669326       1.4669330       15.251010       14.651491    
   107.00000       11.131369       1.1131370       14.669326       14.130813    
   108.00000       9.4939394      0.94939399       11.131369       10.905482    
   109.00000       8.5814886      0.85814899       9.4939394       9.3744040    
   110.00000       8.0063829      0.80063802       8.5814886       8.5082865    
   111.00000       7.6127591      0.76127601       8.0063829       7.9572120    
   112.00000       7.3278542      0.73278499       7.6127586       7.5775938    
   113.00000       7.1127038      0.71126997       7.3278537       7.3014936    
   114.00000       6.9447508      0.69447500       7.1127038       7.0922112    
   115.00000       6.8101110      0.68101102       6.9447513       6.9283533    
   116.00000       6.6998000      0.66997999       6.8101110       6.7966766    
   117.00000       6.6077709      0.66077697       6.6998005       6.6885791    
   118.00000       6.5298080      0.65298098       6.6077709       6.5982432    
   119.00000       6.4628892      0.64628899       6.5298076       6.5216045    
   120.00000       6.4000001      0.64999998       6.4628887       6.4557414    
